# distance (nm) Capacitances(F)
1.500000000000000000e+02 7.211679774479392528e-18
1.520000000000000000e+02 7.204614586189803146e-18
1.540000000000000000e+02 7.197716045052708848e-18
1.560000000000000000e+02 7.190978313345002148e-18
1.580000000000000000e+02 7.184395823400009965e-18
1.600000000000000000e+02 7.177963262136449081e-18
1.620000000000000000e+02 7.171675556641259699e-18
1.640000000000000000e+02 7.165527860723409687e-18
1.660000000000000000e+02 7.159515542362932686e-18
1.680000000000000000e+02 7.153634171986334992e-18
1.700000000000000000e+02 7.147879511505439536e-18
1.720000000000000000e+02 7.142247504062175619e-18
1.740000000000000000e+02 7.136734264426699568e-18
1.760000000000000000e+02 7.131336070000716519e-18
1.780000000000000000e+02 7.126049352381944246e-18
1.800000000000000000e+02 7.120870689449063395e-18
1.820000000000000000e+02 7.115796797930210190e-18
1.840000000000000000e+02 7.110824526420656086e-18
1.860000000000000000e+02 7.105950848818331018e-18
1.880000000000000000e+02 7.101172858148336741e-18
1.900000000000000000e+02 7.096487760749555025e-18
1.920000000000000000e+02 7.091892870799034687e-18
1.940000000000000000e+02 7.087385605151300531e-18
1.960000000000000000e+02 7.082963478471605415e-18
1.980000000000000000e+02 7.078624098643839955e-18
2.000000000000000000e+02 7.074365162435068549e-18
2.020000000000000000e+02 7.070184451400154906e-18
2.040000000000000000e+02 7.066079828011066559e-18
2.060000000000000000e+02 7.062049231996544863e-18
2.080000000000000000e+02 7.058090676878920874e-18
2.100000000000000000e+02 7.054202246695922204e-18
2.120000000000000000e+02 7.050382092895728818e-18
2.140000000000000000e+02 7.046628431395014901e-18
2.160000000000000000e+02 7.042939539789814026e-18
2.180000000000000000e+02 7.039313754710092602e-18
2.200000000000000000e+02 7.035749469309620663e-18
2.220000000000000000e+02 7.032245130882741415e-18
2.240000000000000000e+02 7.028799238601072291e-18
2.260000000000000000e+02 7.025410341362780465e-18
2.280000000000000000e+02 7.022077035748114229e-18
2.300000000000000000e+02 7.018797964075130492e-18
2.320000000000000000e+02 7.015571812549805172e-18
2.340000000000000000e+02 7.012397309505368072e-18
2.360000000000000000e+02 7.009273223725720773e-18
2.380000000000000000e+02 7.006198362848463227e-18
2.400000000000000000e+02 7.003171571842949962e-18
2.420000000000000000e+02 7.000191731559490133e-18
2.440000000000000000e+02 6.997257757345645438e-18
2.460000000000000000e+02 6.994368597726213140e-18
2.480000000000000000e+02 6.991523233143355112e-18
# Totalsim(params=Params(Rtip=30.0, theta_deg=20.0, Hcone=15000.0, Hcant=999.99, Rcant=13750.0, zMax=1000000.0, rhoMax=1000000.0, h0=0.5, d=248.0, Nuni=100, Nr=1000, Nz_plus=1000, hsam=1.0), dmin=150.0, dmax=250.0, istep=4.0, fname=C-Z.dat), Test=1
