# distance (nm) Capacitances(F)
1.500000000000000000e+02 7.212902759291617591e-18
1.520000000000000000e+02 7.205834919614947871e-18
1.540000000000000000e+02 7.198933790890958976e-18
1.560000000000000000e+02 7.192193533198448760e-18
1.580000000000000000e+02 7.185608576769602337e-18
1.600000000000000000e+02 7.179173606513776799e-18
1.620000000000000000e+02 7.172883547595558471e-18
1.640000000000000000e+02 7.166733551983984982e-18
1.660000000000000000e+02 7.160718985897324757e-18
1.680000000000000000e+02 7.154835418074497993e-18
1.700000000000000000e+02 7.149078608810136572e-18
1.720000000000000000e+02 7.143444499695800813e-18
1.740000000000000000e+02 7.137929204014807555e-18
1.760000000000000000e+02 7.132528997742387254e-18
1.780000000000000000e+02 7.127240311107163389e-18
1.800000000000000000e+02 7.122059720673340147e-18
1.820000000000000000e+02 7.116983941906538880e-18
1.840000000000000000e+02 7.112009822188992541e-18
1.860000000000000000e+02 7.107134334252730085e-18
1.880000000000000000e+02 7.102354570001832616e-18
1.900000000000000000e+02 7.097667734696993936e-18
1.920000000000000000e+02 7.093071141477909232e-18
1.940000000000000000e+02 7.088562206200675032e-18
1.960000000000000000e+02 7.084138442569309475e-18
1.980000000000000000e+02 7.079797457541945633e-18
2.000000000000000000e+02 7.075536946993812917e-18
2.020000000000000000e+02 7.071354691620320323e-18
2.040000000000000000e+02 7.067248553064929597e-18
2.060000000000000000e+02 7.063216470257486323e-18
2.080000000000000000e+02 7.059256455949781639e-18
2.100000000000000000e+02 7.055366593436030967e-18
2.120000000000000000e+02 7.051545033446922170e-18
2.140000000000000000e+02 7.047789991206401703e-18
2.160000000000000000e+02 7.044099743641581450e-18
2.180000000000000000e+02 7.040472626736344573e-18
2.200000000000000000e+02 7.036907033020142413e-18
2.220000000000000000e+02 7.033401409184024471e-18
2.240000000000000000e+02 7.029954253816353394e-18
2.260000000000000000e+02 7.026564115251320898e-18
2.280000000000000000e+02 7.023229589523722639e-18
2.300000000000000000e+02 7.019949318423898396e-18
2.320000000000000000e+02 7.016721987647159911e-18
2.340000000000000000e+02 7.013546325032446296e-18
2.360000000000000000e+02 7.010421098885127170e-18
2.380000000000000000e+02 7.007345116379362112e-18
2.400000000000000000e+02 7.004317222035628386e-18
2.420000000000000000e+02 7.001336296269332433e-18
2.440000000000000000e+02 6.998401254006585471e-18
2.460000000000000000e+02 6.995511043363691941e-18
2.480000000000000000e+02 6.992664644386756238e-18
# Totalsim(params=Params(Rtip=30.0, theta_deg=20.0, Hcone=15000.0, Hcant=999.99, Rcant=13750.0, zMax=1000000.0, rhoMax=1000000.0, h0=0.5, d=248.0, Nuni=50, Nr=1000, Nz_plus=1000, hsam=1.0), dmin=150.0, dmax=250.0, istep=4.0, fname=C-Z.dat), Test=1
